Energy (MeV/u)1	0 - [He-base] F.Hubert et al, AD&ND Tables 46(1990)1	Energy (MeV/u)2	1 - [H -base] J.F.Ziegler et al, Pergamon Press, NY (low energy)	Energy (MeV/u)3	2 - ATIMA 1.2  LS-theory (recommended for high energy)	Energy (MeV/u)4	3 - ATIMA 1.2  without LS-correction	Energy (MeV/u)5	4 - electrical component of [1] - J.F.Ziegler et al	Energy (MeV/u)6	5 - nuclear component of [1] - J.F.Ziegler et al	
0.001000	0.0164864 	0.001000	0.0206048 	0.001000	0.0270652 	0.001000	0.0270652 	0.001000	0.0177576 	0.001000	0.00284723	
0.002000	0.0196417 	0.002000	0.0245313 	0.002000	0.0306983 	0.002000	0.0306983 	0.002000	0.0226331 	0.002000	0.00189812	
0.005000	0.0257955 	0.005000	0.0322237 	0.005000	0.0372474 	0.005000	0.0372474 	0.005000	0.0311906 	0.005000	0.00103314	
0.008000	0.0300151 	0.008000	0.037504  	0.008000	0.0414659 	0.008000	0.0414659 	0.008000	0.0367676 	0.008000	0.000736401	
0.010000	0.0323158 	0.010000	0.0403743 	0.010000	0.0436862 	0.010000	0.0436862 	0.010000	0.0397543 	0.010000	0.000620037	
0.015000	0.0389764 	0.015000	0.0466204 	0.015000	0.048116  	0.015000	0.048116  	0.015000	0.046165  	0.015000	0.000455406	
0.020000	0.0444337 	0.020000	0.0516662 	0.020000	0.0515785 	0.020000	0.0515785 	0.020000	0.0513023 	0.020000	0.000363929	
0.025000	0.0489471 	0.025000	0.0558768 	0.025000	0.0544579 	0.025000	0.0544579 	0.025000	0.0555718 	0.025000	0.000305028	
0.030000	0.0526553 	0.030000	0.0594417 	0.030000	0.0572302 	0.030000	0.0572302 	0.030000	0.0591781 	0.030000	0.000263643	
0.035000	0.0556494 	0.035000	0.0624749 	0.035000	0.0595465 	0.035000	0.0595465 	0.035000	0.062242  	0.035000	0.000232831	
0.040000	0.0580015 	0.040000	0.0650522 	0.040000	0.0614839 	0.040000	0.0614839 	0.040000	0.0648433 	0.040000	0.00020892	
0.045000	0.059776  	0.045000	0.0672288 	0.045000	0.0630986 	0.045000	0.0630986 	0.045000	0.0670391 	0.045000	0.000189778	
0.050000	0.0610353 	0.050000	0.0690475 	0.050000	0.0644338 	0.050000	0.0644338 	0.050000	0.0688734 	0.050000	0.000174078	
0.055000	0.0618406 	0.055000	0.0705434 	0.055000	0.0655241 	0.055000	0.0655241 	0.055000	0.0703824 	0.055000	0.000160948	
0.060000	0.0622521 	0.060000	0.0717469 	0.060000	0.0663983 	0.060000	0.0663983 	0.060000	0.0715971 	0.060000	0.000149792	
0.070000	0.0621239 	0.070000	0.0733836 	0.070000	0.0675936 	0.070000	0.0675936 	0.070000	0.0732518 	0.070000	0.000131819	
0.080000	0.061074  	0.080000	0.0741509 	0.080000	0.0681808 	0.080000	0.0681808 	0.080000	0.0740329 	0.080000	0.000117938	
0.090000	0.0594508 	0.090000	0.074218  	0.090000	0.0682865 	0.090000	0.0682865 	0.090000	0.0741112 	0.090000	0.000106869	
0.100000	0.0575185 	0.100000	0.0737345 	0.100000	0.0680128 	0.100000	0.0680128 	0.100000	0.0736367 	0.100000	9.78212e-05	
0.120000	0.0534057 	0.120000	0.0716158 	0.120000	0.0666456 	0.120000	0.0666456 	0.120000	0.0715319 	0.120000	8.38811e-05	
0.140000	0.0495485 	0.140000	0.0686047 	0.140000	0.0645809 	0.140000	0.0645809 	0.140000	0.068531  	0.140000	7.36108e-05	
0.160000	0.0462    	0.160000	0.0652347 	0.160000	0.0621522 	0.160000	0.0621522 	0.160000	0.065169  	0.160000	6.57077e-05	
0.180000	0.0433709 	0.180000	0.0618257 	0.180000	0.0595767 	0.180000	0.0595767 	0.180000	0.0617663 	0.180000	5.94247e-05	
0.200000	0.0409904 	0.200000	0.0585515 	0.200000	0.0569911 	0.200000	0.0569911 	0.200000	0.0584972 	0.200000	5.43017e-05	
0.250000	0.0364696 	0.250000	0.0513778 	0.250000	0.0509414 	0.250000	0.0509414 	0.250000	0.0513329 	0.250000	4.48298e-05	
0.300000	0.0332462 	0.300000	0.0457028 	0.300000	0.0457889 	0.300000	0.0457889 	0.300000	0.0456645 	0.300000	3.83035e-05	
0.350000	0.0307711 	0.350000	0.0412479 	0.350000	0.0415364 	0.350000	0.0415364 	0.350000	0.0412143 	0.350000	3.35167e-05	
0.400000	0.0287639 	0.400000	0.0377023 	0.400000	0.0380416 	0.400000	0.0380416 	0.400000	0.0376724 	0.400000	2.98464e-05	
0.450000	0.0270747 	0.450000	0.0348242 	0.450000	0.0351494 	0.450000	0.0351494 	0.450000	0.0347973 	0.450000	2.69373e-05	
0.500000	0.0256167 	0.500000	0.0324404 	0.500000	0.032728  	0.500000	0.032728  	0.500000	0.0324158 	0.500000	2.45713e-05	
0.600000	0.0231964 	0.600000	0.0287043 	0.600000	0.0289113 	0.600000	0.0289113 	0.600000	0.0286833 	0.600000	2.09488e-05	
0.700000	0.0212456 	0.700000	0.0258836 	0.700000	0.0260325 	0.700000	0.0260325 	0.700000	0.0258653 	0.700000	1.82986e-05	
0.800000	0.0196276 	0.800000	0.0236557 	0.800000	0.0237706 	0.800000	0.0237706 	0.800000	0.0236394 	0.800000	1.6271e-05	
0.900000	0.0182586 	0.900000	0.0218367 	0.900000	0.021935  	0.900000	0.021935  	0.900000	0.0218221 	0.900000	1.46666e-05	
1.000000	0.0170824 	1.000000	0.0203145 	1.000000	0.0204074 	1.000000	0.0204074 	1.000000	0.0203011 	1.000000	1.33639e-05	
1.250000	0.0147513 	1.250000	0.0173841 	1.250000	0.0174873 	1.250000	0.0174873 	1.250000	0.0173731 	1.250000	1.09688e-05	
1.500000	0.0130146 	1.500000	0.015257  	1.500000	0.0153815 	1.500000	0.0153815 	1.500000	0.0152477 	1.500000	9.32973e-06	
1.750000	0.0116665 	1.750000	0.0136295 	1.750000	0.0137751 	1.750000	0.0137751 	1.750000	0.0136214 	1.750000	8.13393e-06	
2.000000	0.0105872 	2.000000	0.012338  	2.000000	0.0125016 	2.000000	0.0125016 	2.000000	0.0123308 	2.000000	7.22104e-06	
2.250000	0.00970219	2.250000	0.011285  	2.250000	0.011463  	2.250000	0.011463  	2.250000	0.0112785 	2.250000	6.50014e-06	
2.500000	0.00892357	2.500000	0.0104083 	2.500000	0.0105976 	2.500000	0.0105976 	2.500000	0.0104024 	2.500000	5.91568e-06	
3.000000	0.00779187	3.000000	0.00902815	3.000000	0.00923269	3.000000	0.00923269	3.000000	0.00902313	3.000000	5.02427e-06	
3.500000	0.00693297	3.500000	0.00798795	3.500000	0.00820091	3.500000	0.00820091	3.500000	0.00798357	3.500000	4.37503e-06	
4.000000	0.00625698	4.000000	0.00717369	4.000000	0.00739074	4.000000	0.00739074	4.000000	0.00716981	4.000000	3.88008e-06	
4.500000	0.00570996	4.500000	0.00651773	4.500000	0.00673612	4.500000	0.00673612	4.500000	0.00651424	4.500000	3.48967e-06	
5.000000	0.00525749	5.000000	0.00597722	5.000000	0.00619517	5.000000	0.00619517	5.000000	0.00597405	5.000000	3.17348e-06	
5.500000	0.00487654	5.500000	0.00552364	5.500000	0.00574   	5.500000	0.00574   	5.500000	0.00552073	5.500000	2.91194e-06	
6.000000	0.00455106	6.000000	0.00513722	6.000000	0.00535126	6.000000	0.00535126	6.000000	0.00513453	6.000000	2.69184e-06	
6.500000	0.00426952	6.500000	0.00480383	6.500000	0.00501508	6.500000	0.00501508	6.500000	0.00480133	6.500000	2.50393e-06	
7.000000	0.0040234 	7.000000	0.00451307	7.000000	0.00472124	7.000000	0.00472124	7.000000	0.00451073	7.000000	2.34154e-06	
7.500000	0.00380629	7.500000	0.00425711	7.500000	0.00446203	7.500000	0.00446203	7.500000	0.00425491	7.500000	2.19975e-06	
8.000000	0.00361325	8.000000	0.00402996	8.000000	0.00423156	8.000000	0.00423156	8.000000	0.00402789	8.000000	2.07481e-06	
8.500000	0.0034404 	8.500000	0.00382694	8.500000	0.00402517	8.500000	0.00402517	8.500000	0.00382497	8.500000	1.96386e-06	
9.000000	0.00328467	9.000000	0.00364432	9.000000	0.00383922	9.000000	0.00383922	9.000000	0.00364245	9.000000	1.86464e-06	
9.500000	0.0031436 	9.500000	0.00347913	9.500000	0.00367072	9.500000	0.00367072	9.500000	0.00347735	9.500000	1.77535e-06	
10.000000	0.00301515	10.000000	0.00344643	10.000000	0.0035173 	10.000000	0.0035173 	10.000000	0.00344474	10.000000	1.69456e-06	
11.000000	0.00278982	11.000000	0.00319363	11.000000	0.00324484	11.000000	0.00324486	11.000000	0.00319208	11.000000	1.55399e-06	
12.000000	0.00259845	12.000000	0.00297781	12.000000	0.0030139 	12.000000	0.00301395	12.000000	0.00297637	12.000000	1.43577e-06	
13.000000	0.00243379	13.000000	0.0027913 	13.000000	0.00281567	13.000000	0.0028157 	13.000000	0.00278996	13.000000	1.3349e-06	
14.000000	0.0022905 	14.000000	0.00262845	14.000000	0.00264365	14.000000	0.00264364	14.000000	0.0026272 	14.000000	1.24779e-06	
15.000000	0.00216461	15.000000	0.00248496	15.000000	0.0024929 	15.000000	0.0024929 	15.000000	0.00248379	15.000000	1.17176e-06	
16.000000	0.00205308	16.000000	0.00235754	16.000000	0.00235979	16.000000	0.00235976	16.000000	0.00235644	16.000000	1.1048e-06	
17.000000	0.00195354	17.000000	0.00224359	17.000000	0.00224143	17.000000	0.00224133	17.000000	0.00224254	17.000000	1.04536e-06	
18.000000	0.00186413	18.000000	0.00214105	18.000000	0.00213546	18.000000	0.00213532	18.000000	0.00214006	18.000000	9.92219e-07	
19.000000	0.00178334	19.000000	0.00204827	19.000000	0.00204003	19.000000	0.00203989	19.000000	0.00204733	19.000000	9.44424e-07	
20.000000	0.00170996	20.000000	0.0019639 	20.000000	0.00195371	20.000000	0.00195357	20.000000	0.001963  	20.000000	9.01192e-07	
21.000000	0.001643  	21.000000	0.00188683	21.000000	0.00187528	21.000000	0.00187513	21.000000	0.00188597	21.000000	8.61892e-07	
22.000000	0.00158164	22.000000	0.00181614	22.000000	0.00180372	22.000000	0.00180357	22.000000	0.00181531	22.000000	8.26005e-07	
23.000000	0.00152519	23.000000	0.00175105	23.000000	0.00173819	23.000000	0.00173804	23.000000	0.00175026	23.000000	7.93098e-07	
24.000000	0.00147307	24.000000	0.00169092	24.000000	0.00167806	24.000000	0.00167784	24.000000	0.00169016	24.000000	7.6281e-07	
25.000000	0.00142479	25.000000	0.00163519	25.000000	0.00162269	25.000000	0.00162238	25.000000	0.00163445	25.000000	7.34838e-07	
27.000000	0.00133816	27.000000	0.00153511	27.000000	0.00152404	27.000000	0.00152365	27.000000	0.00153442	27.000000	6.84839e-07	
29.000000	0.00126259	29.000000	0.00144775	29.000000	0.00143893	29.000000	0.00143855	29.000000	0.00144711	29.000000	6.41442e-07	
31.000000	0.00119606	31.000000	0.0013708 	31.000000	0.00136373	31.000000	0.00136334	31.000000	0.00137019	31.000000	6.03405e-07	
33.000000	0.001137  	33.000000	0.00130248	33.000000	0.00129599	33.000000	0.00129562	33.000000	0.00130191	33.000000	5.69782e-07	
35.000000	0.00108422	35.000000	0.0012414 	35.000000	0.00123539	35.000000	0.00123507	35.000000	0.00124086	35.000000	5.39838e-07	
38.000000	0.00101472	38.000000	0.00116098	38.000000	0.00115576	38.000000	0.00115532	38.000000	0.00116048	38.000000	5.00586e-07	
41.000000	0.000954691	41.000000	0.00109153	41.000000	0.00108687	41.000000	0.00108641	41.000000	0.00109106	41.000000	4.66841e-07	
44.000000	0.000902284	44.000000	0.00103091	44.000000	0.00102666	44.000000	0.00102625	44.000000	0.00103048	44.000000	4.37507e-07	
47.000000	0.000856108	47.000000	0.000977534	47.000000	0.000973633	47.000000	0.000973241	47.000000	0.000977122	47.000000	4.11764e-07	
50.000000	0.000815095	50.000000	0.000930149	50.000000	0.000926529	50.000000	0.000926161	50.000000	0.00092976	50.000000	3.88983e-07	
55.000000	0.000756018	55.000000	0.000861959	55.000000	0.000858706	55.000000	0.000858366	55.000000	0.000861603	55.000000	3.56317e-07	
60.000000	0.000706139	60.000000	0.000804461	60.000000	0.000801492	60.000000	0.000801156	60.000000	0.000804132	60.000000	3.2888e-07	
65.000000	0.000663426	65.000000	0.000755296	65.000000	0.000752598	65.000000	0.000752201	65.000000	0.000754991	65.000000	3.05497e-07	
70.000000	0.000626409	70.000000	0.000712758	70.000000	0.000710176	70.000000	0.000709815	70.000000	0.000712472	70.000000	2.85322e-07	
75.000000	0.000594  	75.000000	0.000675576	75.000000	0.000673084	75.000000	0.000672743	75.000000	0.000675308	75.000000	2.67732e-07	
80.000000	0.00056537	80.000000	0.000642789	80.000000	0.000640356	80.000000	0.000640034	80.000000	0.000642536	80.000000	2.52253e-07	
85.000000	0.000539881	85.000000	0.000613652	85.000000	0.000611257	85.000000	0.000610952	85.000000	0.000613414	85.000000	2.38524e-07	
90.000000	0.000517033	90.000000	0.000587583	90.000000	0.000585212	90.000000	0.000584919	90.000000	0.000587357	90.000000	2.26261e-07	
95.000000	0.000496427	95.000000	0.000564117	95.000000	0.000561823	95.000000	0.000561476	95.000000	0.000563902	95.000000	2.15238e-07	
100.000000	0.00047774	100.000000	0.000542878	100.000000	0.000540583	100.000000	0.000540251	100.000000	0.000542673	100.000000	2.05274e-07	
105.000000	0.000460711	105.000000	0.000523561	105.000000	0.000521257	105.000000	0.00052094	105.000000	0.000523365	105.000000	1.96222e-07	
110.000000	0.000445123	110.000000	0.000505914	110.000000	0.000503599	110.000000	0.000503293	110.000000	0.000505726	110.000000	1.8796e-07	
115.000000	0.000430796	115.000000	0.000489727	115.000000	0.000487398	115.000000	0.000487104	115.000000	0.000489547	115.000000	1.80389e-07	
120.000000	0.000417579	120.000000	0.000474826	120.000000	0.00047248	120.000000	0.000472196	120.000000	0.000474652	120.000000	1.73425e-07	
125.000000	0.000405346	125.000000	0.000461061	125.000000	0.000458699	125.000000	0.000458424	125.000000	0.000460894	125.000000	1.66996e-07	
130.000000	0.000393987	130.000000	0.000448306	130.000000	0.000445927	130.000000	0.000445661	130.000000	0.000448145	130.000000	1.61042e-07	
135.000000	0.00038341	135.000000	0.000436454	135.000000	0.000434052	135.000000	0.000433799	135.000000	0.000436298	135.000000	1.55513e-07	
140.000000	0.000373535	140.000000	0.00042541	140.000000	0.000423017	140.000000	0.000422747	140.000000	0.00042526	140.000000	1.50363e-07	
145.000000	0.000364292	145.000000	0.000415096	145.000000	0.000412718	145.000000	0.000412423	145.000000	0.00041495	145.000000	1.45554e-07	
150.000000	0.00035562	150.000000	0.000405439	150.000000	0.000403044	150.000000	0.000402758	150.000000	0.000405298	150.000000	1.41054e-07	
155.000000	0.000343411	155.000000	0.00039638	155.000000	0.000393966	155.000000	0.000393691	155.000000	0.000396243	155.000000	1.36833e-07	
160.000000	0.000336255	160.000000	0.000387863	160.000000	0.000385437	160.000000	0.000385167	160.000000	0.00038773	160.000000	1.32866e-07	
165.000000	0.000329506	165.000000	0.000379842	165.000000	0.000377403	165.000000	0.000377139	165.000000	0.000379713	165.000000	1.29129e-07	
170.000000	0.000323132	170.000000	0.000372274	170.000000	0.000369823	170.000000	0.000369566	170.000000	0.000372148	170.000000	1.25605e-07	
175.000000	0.0003171 	175.000000	0.000365122	175.000000	0.000362661	175.000000	0.000362409	175.000000	0.000365  	175.000000	1.22274e-07	
180.000000	0.000311383	180.000000	0.000358352	180.000000	0.000355882	180.000000	0.000355636	180.000000	0.000358233	180.000000	1.19121e-07	
185.000000	0.000305958	185.000000	0.000351934	185.000000	0.000349457	185.000000	0.000349216	185.000000	0.000351818	185.000000	1.16131e-07	
190.000000	0.000300802	190.000000	0.000345842	190.000000	0.00034336	190.000000	0.000343122	190.000000	0.000345729	190.000000	1.13294e-07	
195.000000	0.000295895	195.000000	0.000340052	195.000000	0.000337561	195.000000	0.000337331	195.000000	0.000339941	195.000000	1.10596e-07	
200.000000	0.00029122	200.000000	0.00033454	200.000000	0.000332044	200.000000	0.00033182	200.000000	0.000334432	200.000000	1.08028e-07	
210.000000	0.000282501	210.000000	0.00032428	210.000000	0.000321813	210.000000	0.000321562	210.000000	0.000324176	210.000000	1.03245e-07	
220.000000	0.000274532	220.000000	0.000314922	220.000000	0.000312461	220.000000	0.000312212	220.000000	0.000314824	220.000000	9.88812e-08	
230.000000	0.00026722	230.000000	0.000306355	230.000000	0.000303894	230.000000	0.000303655	230.000000	0.00030626	230.000000	9.48826e-08	
240.000000	0.000260485	240.000000	0.000298481	240.000000	0.000296027	240.000000	0.000295794	240.000000	0.00029839	240.000000	9.1205e-08	
250.000000	0.000254263	250.000000	0.000291221	250.000000	0.000288776	250.000000	0.00028855	250.000000	0.000291134	250.000000	8.78108e-08	
260.000000	0.000248497	260.000000	0.000284506	260.000000	0.000282073	260.000000	0.000281853	260.000000	0.000284422	260.000000	8.46681e-08	
270.000000	0.000243137	270.000000	0.000278278	270.000000	0.000275859	270.000000	0.000275644	270.000000	0.000278196	270.000000	8.17497e-08	
280.000000	0.000238143	280.000000	0.000272485	280.000000	0.000270083	280.000000	0.000269873	280.000000	0.000272406	280.000000	7.90321e-08	
290.000000	0.000233478	290.000000	0.000267084	290.000000	0.000264698	290.000000	0.000264496	290.000000	0.000267008	290.000000	7.64951e-08	
300.000000	0.000229111	300.000000	0.000262038	300.000000	0.000259686	300.000000	0.000259475	300.000000	0.000261964	300.000000	7.4121e-08	
310.000000	0.000225015	310.000000	0.000257313	310.000000	0.000255001	310.000000	0.000254776	310.000000	0.000257241	310.000000	7.18946e-08	
320.000000	0.000221164	320.000000	0.000252879	320.000000	0.00025059	320.000000	0.000250369	320.000000	0.000252809	320.000000	6.98022e-08	
330.000000	0.000217539	330.000000	0.000248711	330.000000	0.000246444	330.000000	0.00024623	330.000000	0.000248644	330.000000	6.7832e-08	
340.000000	0.00021412	340.000000	0.000244787	340.000000	0.000242546	340.000000	0.000242335	340.000000	0.000244721	340.000000	6.59735e-08	
350.000000	0.00021089	350.000000	0.000241086	350.000000	0.000238871	350.000000	0.000238663	350.000000	0.000241022	350.000000	6.42174e-08	
360.000000	0.000207834	360.000000	0.00023759	360.000000	0.000235402	360.000000	0.000235198	360.000000	0.000237528	360.000000	6.25553e-08	
370.000000	0.000204939	370.000000	0.000234283	370.000000	0.000232101	370.000000	0.0002319 	370.000000	0.000234222	370.000000	6.09798e-08	
380.000000	0.000202192	380.000000	0.000231151	380.000000	0.000228976	380.000000	0.000228778	380.000000	0.000231091	380.000000	5.94843e-08	
390.000000	0.000199583	390.000000	0.00022818	390.000000	0.000226013	390.000000	0.000225819	390.000000	0.000228122	390.000000	5.80626e-08	
400.000000	0.000197102	400.000000	0.000225358	400.000000	0.000223202	400.000000	0.00022301	400.000000	0.000225302	400.000000	5.67095e-08	
410.000000	0.00019474	410.000000	0.000222676	410.000000	0.00022053	410.000000	0.000220341	410.000000	0.000222621	410.000000	5.542e-08 	
420.000000	0.000192489	420.000000	0.000220123	420.000000	0.000217989	420.000000	0.000217803	420.000000	0.000220069	420.000000	5.41898e-08	
430.000000	0.000190342	430.000000	0.000217691	430.000000	0.000215569	430.000000	0.000215385	430.000000	0.000217638	430.000000	5.30147e-08	
440.000000	0.000188291	440.000000	0.000215372	440.000000	0.00021326	440.000000	0.000213081	440.000000	0.00021532	440.000000	5.18911e-08	
450.000000	0.000186331	450.000000	0.000213158	450.000000	0.00021106	450.000000	0.000210882	450.000000	0.000213107	450.000000	5.08156e-08	
460.000000	0.000184456	460.000000	0.000211042	460.000000	0.000208966	460.000000	0.000208783	460.000000	0.000210992	460.000000	4.97852e-08	
470.000000	0.000182661	470.000000	0.000209019	470.000000	0.000206968	470.000000	0.000206776	470.000000	0.000208971	470.000000	4.87972e-08	
480.000000	0.000180941	480.000000	0.000207084	480.000000	0.000205053	480.000000	0.000204857	480.000000	0.000207036	480.000000	4.78488e-08	
490.000000	0.000179292	490.000000	0.000205229	490.000000	0.000203214	490.000000	0.000203019	490.000000	0.000205183	490.000000	4.69377e-08	
500.000000	0.00017771	500.000000	0.000203452	500.000000	0.00020145	500.000000	0.000201258	500.000000	0.000203406	500.000000	4.60618e-08	
520.000000	0.000174731	520.000000	0.000200112	520.000000	0.000198138	520.000000	0.000197951	520.000000	0.000200068	520.000000	4.44076e-08	
540.000000	0.000171978	540.000000	0.000197031	540.000000	0.000195086	540.000000	0.000194903	540.000000	0.000196988	540.000000	4.28715e-08	
560.000000	0.000169428	560.000000	0.000194183	560.000000	0.000192266	560.000000	0.000192086	560.000000	0.000194141	560.000000	4.14414e-08	
580.000000	0.00016706	580.000000	0.000191543	580.000000	0.000189654	580.000000	0.000189477	580.000000	0.000191503	580.000000	4.01065e-08	
600.000000	0.000164858	600.000000	0.000189092	600.000000	0.00018723	600.000000	0.000187055	600.000000	0.000189053	600.000000	3.88575e-08	
620.000000	0.000162806	620.000000	0.000186812	620.000000	0.000184975	620.000000	0.000184803	620.000000	0.000186774	620.000000	3.76863e-08	
640.000000	0.000160891	640.000000	0.000184687	640.000000	0.000182874	640.000000	0.000182704	640.000000	0.00018465	640.000000	3.65858e-08	
660.000000	0.000159102	660.000000	0.000182703	660.000000	0.000180912	660.000000	0.000180745	660.000000	0.000182667	660.000000	3.55497e-08	
